SiO2
# 1 - Si, 2 - O  !   2.03.86
Дата и время - 04.07.2013 16:31:58. Длит. расчетов,сек= 0
H(S)
157 1 1 1 0
  0.0500  13394030.0000
  0.1000  10033447.0000
  0.1500   1746046.3750
  0.2000    102011.2969
  0.2500    574027.1250
  0.3000    119726.1875
  0.3500     56606.5391
  0.4000     95853.6875
  0.4500    -11894.3467
  0.5000    -13511.1436
  0.5500    -15437.6426
  0.6000    -44894.0117
  0.6500    -54860.9453
  0.7000    -58319.6055
  0.7500    -72770.7969
  0.8000    -83707.7109
  0.8500    -78470.0625
  0.9000    -88748.9922
  0.9500   -104586.8359
  1.0000   -101156.4688
  1.0500   -106197.3828
  1.1000   -106319.2578
  1.1500    -88850.1719
  1.2000    -85258.6719
  1.2500    -55320.6797
  1.3000    -23683.8711
  1.3500     13697.0234
  1.4000    389762.6563
  1.4500   1026672.7500
  1.5000   1101357.2500
  1.5500    484124.8125
  1.6000     -1378.4554
  1.6500    -80074.9297
  1.7000   -101028.2266
  1.7500   -148462.5469
  1.8000   -161464.1094
  1.8500   -171203.0625
  1.9000   -175112.3125
  1.9500   -178957.6094
  2.0000   -196018.3906
  2.0500   -205606.2969
  2.1000   -205227.4063
  2.1500   -199031.7344
  2.2000   -193664.8438
  2.2500   -207410.6406
  2.3000   -145657.0156
  2.3500    149249.7656
  2.4000    478164.8750
  2.4500    411131.1875
  2.5000     38204.2422
  2.5500   -194479.8438
  2.6000   -224928.6563
  2.6500   -227324.6094
  2.7000   -231724.4688
  2.7500   -223742.5938
  2.8000   -215079.4688
  2.8500   -151700.7031
  2.9000     30197.6641
  2.9500    177111.3281
  3.0000     72861.9531
  3.0500   -159120.1250
  3.1000   -276032.3750
  3.1500   -291832.7188
  3.2000   -303687.8750
  3.2500   -315774.0625
  3.3000   -318784.6563
  3.3500   -317634.8125
  3.4000   -318180.7813
  3.4500   -316885.7500
  3.5000   -298377.2188
  3.5500   -288171.0313
  3.6000   -174435.6094
  3.6500    337229.7500
  3.7000    987374.7500
  3.7500    976464.7500
  3.8000    319413.5938
  3.8500   -185588.7813
  3.9000   -297145.7500
  3.9500   -300604.8438
  4.0000   -318236.5625
  4.0500   -275365.7813
  4.1000     -1941.2094
  4.1500    420949.2500
  4.2000    511435.8750
  4.2500    133939.7656
  4.3000   -235167.2813
  4.3500   -318144.1250
  4.4000   -293278.8438
  4.4500   -293995.2188
  4.5000   -311291.6563
  4.5500   -348855.9063
  4.6000   -388425.1250
  4.6500   -401214.3438
  4.7000   -304665.4063
  4.7500    136294.5938
  4.8000    814699.2500
  4.8500    968566.8125
  4.9000    419960.6563
  4.9500    229100.7344
  5.0000    940990.0000
  5.0500   1527067.3750
  5.1000   1071317.0000
  5.1500    172333.2656
  5.2000   -289371.1875
  5.2500   -351338.6250
  5.3000   -219592.0000
  5.3500     91694.1563
  5.4000    285599.5000
  5.4500    104338.5625
  5.5000   -221484.9844
  5.5500   -317025.7188
  5.6000   -158525.7656
  5.6500    -37843.1289
  5.7000   -139365.7813
  5.7500   -338862.5313
  5.8000   -445069.8438
  5.8500   -440628.4375
  5.9000   -430229.0313
  5.9500   -423244.5625
  6.0000   -137734.2969
  6.0500    548569.9375
  6.1000    979857.8125
  6.1500    607978.9375
  6.2000    -58289.3633
  6.2500   -342254.6563
  6.3000    -97033.8516
  6.3500    451644.3438
  6.4000    683376.5625
  6.4500    298741.2188
  6.5000   -144391.4063
  6.5500   -241898.1563
  6.6000   -258694.5156
  6.6500   -386774.2188
  6.7000   -470993.8750
  6.7500   -369709.7188
  6.8000   -181001.2344
  6.8500   -114725.3359
  6.9000   -123671.5859
  6.9500    -18362.4434
  7.0000     54781.7617
  7.0500   -134003.5000
  7.1000   -378965.5000
  7.1500   -306982.0000
  7.2000     40153.1211
  7.2500    216407.0313
  7.3000     20897.0313
  7.3500   -196391.7344
  7.4000   -175064.3750
  7.4500   -156037.8281
  7.5000   -305119.9063
  7.5500   -421151.6563
  7.6000   -426686.0000
  7.6500   -348350.2813
  7.7000     49986.1719
  7.7500    683435.5625
  7.8000    826669.3125
  7.8500    269124.3750
