SiO2
# 1 - Si, 2 - O  !   2.03.86
Дата и время - 04.07.2013 16:31:58. Длит. расчетов,сек= 0
I(S)
157 30 30 1 0
  0.0500 822105856.0000
  0.1000 307779296.0000
  0.1500  35957216.0000
  0.2000   1917382.7500
  0.2500   7337396.0000
  0.3000   1566234.0000
  0.3500    843587.2500
  0.4000   1071533.1250
  0.4500    273193.2813
  0.5000    269140.9688
  0.5500    263583.5000
  0.6000    125198.2031
  0.6500     96091.8906
  0.7000     97820.4688
  0.7500     57711.5313
  0.8000     35414.0000
  0.8500     68466.2188
  0.9000     50034.1250
  0.9500     18083.7500
  1.0000     41050.5313
  1.0500     40051.3125
  1.1000     50577.2656
  1.1500     98675.8906
  1.2000    112314.2031
  1.2500    176272.5313
  1.3000    236396.8281
  1.3500    300117.5938
  1.4000    926606.0000
  1.4500   1906768.7500
  1.5000   1934990.3750
  1.5500    956874.7500
  1.6000    250090.1094
  1.6500    142159.4688
  1.7000    116124.5078
  1.7500     60545.9219
  1.8000     49103.1719
  1.8500     42146.5938
  1.9000     41809.1875
  1.9500     41502.8281
  2.0000     28472.5625
  2.0500     23348.5000
  2.1000     27383.7344
  2.1500     36007.0000
  2.2000     43214.1719
  2.2500     34881.2344
  2.3000     83884.6953
  2.3500    297684.6250
  2.4000    518936.0000
  2.4500    458214.5000
  2.5000    204099.5469
  2.5500     55232.9297
  2.6000     38102.3281
  2.6500     38362.7969
  2.7000     37438.6953
  2.7500     43235.1875
  2.8000     48936.6641
  2.8500     81743.1016
  2.9000    169926.5469
  2.9500    235791.2969
  3.0000    183035.4844
  3.0500     77292.0625
  3.1000     27185.0078
  3.1500     21906.6563
  3.2000     18518.7656
  3.2500     15223.6641
  3.3000     15534.2109
  3.3500     17317.9922
  3.4000     18389.2109
  3.4500     20016.6250
  3.5000     27270.5703
  3.5500     31412.8359
  3.6000     67874.2891
  3.6500    224006.5781
  3.7000    412644.0938
  3.7500    399616.3125
  3.8000    205245.7656
  3.8500     62746.4336
  3.9000     32621.0781
  3.9500     32119.3047
  4.0000     28042.0000
  4.0500     39062.1250
  4.1000    104917.6406
  4.1500    202481.0938
  4.2000    219213.6875
  4.2500    130734.4531
  4.3000     48272.2461
  4.3500     30469.7031
  4.4000     35832.9961
  4.4500     35753.8047
  4.5000     32381.2109
  4.5500     25224.0156
  4.6000     17994.7969
  4.6500     16016.0156
  4.7000     33858.2422
  4.7500    111752.0000
  4.8000    227300.7188
  4.8500    249146.6094
  4.9000    153702.7500
  4.9500    120183.4375
  5.0000    231321.7813
  5.0500    318312.9688
  5.1000    242999.1719
  5.1500    104456.1797
  5.2000     35340.1016
  5.2500     26258.5781
  5.3000     44766.6641
  5.3500     87335.3672
  5.4000    112379.6328
  5.4500     86611.6875
  5.5000     42924.5352
  5.5500     30293.1367
  5.6000     50037.3633
  5.6500     64390.0820
  5.7000     51271.6172
  5.7500     26928.1094
  5.8000     14326.9531
  5.8500     14878.7305
  5.9000     16076.5859
  5.9500     16838.3945
  6.0000     48035.6211
  6.0500    121320.6094
  6.1000    165225.3125
  6.1500    124050.3984
  6.2000     53972.5820
  6.2500     24653.5039
  6.3000     48797.4141
  6.3500    101881.8594
  6.4000    122813.8906
  6.4500     84601.0703
  6.5000     42031.9258
  6.5500     32542.4180
  6.6000     30644.2734
  6.6500     18829.6328
  6.7000     11211.7305
  6.7500     19939.2070
  6.8000     35923.6055
  6.8500     41100.4023
  6.9000     39842.7773
  6.9500     48030.0352
  7.0000     53380.0352
  7.0500     37546.8984
  7.1000     17660.3027
  7.1500     23073.3828
  7.2000     49619.2344
  7.2500     62454.5664
  7.3000     46933.2539
  7.3500     30156.4551
  7.4000     31339.2715
  7.4500     32323.9180
  7.5000     21186.5586
  7.5500     12648.8809
  7.6000     12065.8086
  7.6500     17323.0918
  7.7000     44464.4297
  7.7500     87005.1563
  7.8000     95644.9219
  7.8500     57438.5547
