SiO2
# 1 - Si, 2 - O  !   2.03.86
Дата и время - 04.07.2013 16:31:58. Длит. расчетов,сек= 0
Inorm(S)
157 3 3 1 0
  0.0500 274035296.0000
  0.1000 102593096.0000
  0.1500  11985739.0000
  0.2000    639127.5625
  0.2500   2445798.7500
  0.3000    522078.0000
  0.3500    281195.7500
  0.4000    357177.7188
  0.4500     91064.4297
  0.5000     89713.6563
  0.5500     87861.1641
  0.6000     41732.7344
  0.6500     32030.6309
  0.7000     32606.8223
  0.7500     19237.1777
  0.8000     11804.6670
  0.8500     22822.0723
  0.9000     16678.0410
  0.9500      6027.9165
  1.0000     13683.5107
  1.0500     13350.4375
  1.1000     16859.0879
  1.1500     32891.9648
  1.2000     37438.0664
  1.2500     58757.5117
  1.3000     78798.9453
  1.3500    100039.1953
  1.4000    308868.6563
  1.4500    635589.5625
  1.5000    644996.8125
  1.5500    318958.2500
  1.6000     83363.3672
  1.6500     47386.4883
  1.7000     38708.1680
  1.7500     20181.9746
  1.8000     16367.7236
  1.8500     14048.8643
  1.9000     13936.3955
  1.9500     13834.2764
  2.0000      9490.8545
  2.0500      7782.8335
  2.1000      9127.9111
  2.1500     12002.3330
  2.2000     14404.7236
  2.2500     11627.0781
  2.3000     27961.5645
  2.3500     99228.2109
  2.4000    172978.6719
  2.4500    152738.1719
  2.5000     68033.1797
  2.5500     18410.9766
  2.6000     12700.7764
  2.6500     12787.5986
  2.7000     12479.5654
  2.7500     14411.7295
  2.8000     16312.2217
  2.8500     27247.7012
  2.9000     56642.1836
  2.9500     78597.1016
  3.0000     61011.8281
  3.0500     25764.0215
  3.1000      9061.6689
  3.1500      7302.2188
  3.2000      6172.9219
  3.2500      5074.5547
  3.3000      5178.0703
  3.3500      5772.6641
  3.4000      6129.7368
  3.4500      6672.2085
  3.5000      9090.1904
  3.5500     10470.9453
  3.6000     22624.7637
  3.6500     74668.8594
  3.7000    137548.0313
  3.7500    133205.4375
  3.8000     68415.2578
  3.8500     20915.4785
  3.9000     10873.6924
  3.9500     10706.4346
  4.0000      9347.3330
  4.0500     13020.7080
  4.1000     34972.5469
  4.1500     67493.6953
  4.2000     73071.2266
  4.2500     43578.1523
  4.3000     16090.7490
  4.3500     10156.5674
  4.4000     11944.3320
  4.4500     11917.9346
  4.5000     10793.7373
  4.5500      8408.0049
  4.6000      5998.2656
  4.6500      5338.6719
  4.7000     11286.0811
  4.7500     37250.6680
  4.8000     75766.9063
  4.8500     83048.8672
  4.9000     51234.2500
  4.9500     40061.1445
  5.0000     77107.2578
  5.0500    106104.3203
  5.1000     80999.7266
  5.1500     34818.7266
  5.2000     11780.0342
  5.2500      8752.8594
  5.3000     14922.2217
  5.3500     29111.7891
  5.4000     37459.8789
  5.4500     28870.5625
  5.5000     14308.1787
  5.5500     10097.7119
  5.6000     16679.1211
  5.6500     21463.3613
  5.7000     17090.5391
  5.7500      8976.0361
  5.8000      4775.6509
  5.8500      4959.5767
  5.9000      5358.8618
  5.9500      5612.7983
  6.0000     16011.8740
  6.0500     40440.2031
  6.1000     55075.1055
  6.1500     41350.1328
  6.2000     17990.8613
  6.2500      8217.8350
  6.3000     16265.8047
  6.3500     33960.6211
  6.4000     40937.9648
  6.4500     28200.3574
  6.5000     14010.6416
  6.5500     10847.4727
  6.6000     10214.7578
  6.6500      6276.5444
  6.7000      3737.2434
  6.7500      6646.4023
  6.8000     11974.5352
  6.8500     13700.1338
  6.9000     13280.9258
  6.9500     16010.0117
  7.0000     17793.3457
  7.0500     12515.6328
  7.1000      5886.7676
  7.1500      7691.1274
  7.2000     16539.7441
  7.2500     20818.1895
  7.3000     15644.4180
  7.3500     10052.1514
  7.4000     10446.4238
  7.4500     10774.6396
  7.5000      7062.1860
  7.5500      4216.2935
  7.6000      4021.9363
  7.6500      5774.3638
  7.7000     14821.4766
  7.7500     29001.7188
  7.8000     31881.6406
  7.8500     19146.1855
