SiO2
# 1 - Si, 2 - O  !   2.03.86
Дата и время - 04.07.2013 16:31:58. Длит. расчетов,сек= 0
D(r)
101 15 15 1 0
   0.000          0.000
   0.100     -21192.123
   0.200     -30041.088
   0.300     -20612.322
   0.400       3024.818
   0.500      27879.521
   0.600      37918.602
   0.700      22730.475
   0.800     -14771.788
   0.900     -55747.414
   1.000     -70505.852
   1.100     -30548.172
   1.200      76884.672
   1.300     238501.156
   1.400     414887.656
   1.500     552638.188
   1.600     604863.188
   1.700     551504.688
   1.800     409845.250
   1.900     229354.750
   2.000      72139.148
   2.100     -12605.954
   2.200      -8340.886
   2.300      64259.676
   2.400     160024.859
   2.500     232716.625
   2.600     257162.047
   2.700     238822.672
   2.800     206291.234
   2.900     191466.672
   3.000     208941.938
   3.100     246622.406
   3.200     273349.438
   3.300     259565.734
   3.400     199220.969
   3.500     119635.102
   3.600      72050.773
   3.700     106130.086
   3.800     241014.750
   3.900     448577.219
   4.000     659196.000
   4.100     789247.500
   4.200     778286.875
   4.300     618429.500
   4.400     361686.125
   4.500     101404.391
   4.600     -63870.102
   4.700     -67901.742
   4.800     100368.375
   4.900     396870.344
   5.000     742705.938
   5.100    1053585.750
   5.200    1265233.875
   5.300    1346157.000
   5.400    1296934.250
   5.500    1141569.375
   5.600     918056.688
   5.700     672134.563
   5.800     453215.563
   5.900     308443.250
   6.000     272151.688
   6.100     352700.125
   6.200     523419.156
   6.300     725328.375
   6.400     884802.625
   6.500     941341.000
   6.600     873580.500
   6.700     710287.000
   6.800     519021.469
   6.900     376057.594
   7.000     331302.156
   7.100     385605.844
   7.200     492411.844
   7.300     583456.563
   7.400     605529.375
   7.500     549029.000
   7.600     452933.000
   7.700     383141.750
   7.800     395487.594
   7.900     503318.406
   8.000     667564.563
   8.100     815415.750
   8.200     878375.313
   8.300     829736.063
   8.400     701381.938
   8.500     570411.563
   8.600     521887.156
   8.700     606571.813
   8.800     815092.125
   8.900    1081358.625
   9.000    1312869.375
   9.100    1432022.750
   9.200    1407739.375
   9.300    1262901.875
   9.400    1056519.000
   9.500     852573.438
   9.600     693198.750
   9.700     589448.125
   9.800     531513.938
   9.900     508668.813
  10.000     524255.563
